mH (GeV) 	H to gg 	H to &γγ 	H to Zγ 	H to WW 	H to ZZ 	Total ΓH (GeV)
90 	6.12e-02 	1.23e-03 	0.00 	2.09e-03 	4.21e-04 	2.20e-03
95 	6.74e-02 	1.40e-03 	4.52e-06 	4.72e-03 	6.72e-04 	2.32e-03
100 	7.37e-02 	1.59e-03 	4.98e-05 	1.11e-02 	1.13e-03 	2.46e-03
105 	7.95e-02 	1.78e-03 	1.73e-04 	2.43e-02 	2.15e-03 	2.62e-03
110 	8.44e-02 	1.97e-03 	3.95e-04 	4.82e-02 	4.39e-03 	2.82e-03
115 	8.76e-02 	2.13e-03 	7.16e-04 	8.67e-02 	8.73e-03 	3.09e-03
120 	8.82e-02 	2.25e-03 	1.12e-03 	1.43e-01 	1.60e-02 	3.47e-03
125 	8.56e-02 	2.30e-03 	1.55e-03 	2.16e-01 	2.67e-02 	4.03e-03
130 	7.96e-02 	2.26e-03 	1.96e-03 	3.05e-01 	4.02e-02 	4.87e-03
135 	7.06e-02 	2.14e-03 	2.28e-03 	4.03e-01 	5.51e-02 	6.14e-03
140 	5.94e-02 	1.94e-03 	2.47e-03 	5.04e-01 	6.92e-02 	8.12e-03
145 	4.70e-02 	1.68e-03 	2.49e-03 	6.03e-01 	7.96e-02 	1.14e-02
150 	3.43e-02 	1.37e-03 	2.32e-03 	6.99e-01 	8.28e-02 	1.73e-02
155 	2.16e-02 	1.00e-03 	1.91e-03 	7.96e-01 	7.36e-02 	3.02e-02
160 	8.57e-03 	5.33e-04 	1.15e-03 	9.09e-01 	4.16e-02 	8.29e-02
165 	3.11e-03 	2.30e-04 	5.45e-04 	9.60e-01 	2.22e-02 	2.46e-01
170 	2.18e-03 	1.58e-04 	4.00e-04 	9.65e-01 	2.36e-02 	3.80e-01
175 	1.80e-03 	1.23e-04 	3.38e-04 	9.58e-01 	3.23e-02 	5.00e-01
180 	1.54e-03 	1.02e-04 	2.96e-04 	9.32e-01 	6.02e-02 	6.31e-01
185 	1.26e-03 	8.09e-05 	2.44e-04 	8.44e-01 	1.50e-01 	8.32e-01
190 	1.08e-03 	6.74e-05 	2.11e-04 	7.86e-01 	2.09e-01 	1.04
195 	9.84e-04 	5.89e-05 	1.91e-04 	7.57e-01 	2.39e-01 	1.24
200 	9.16e-04 	5.26e-05 	1.75e-04 	7.41e-01 	2.56e-01 	1.43
210 	8.27e-04 	4.34e-05 	1.52e-04 	7.23e-01 	2.74e-01 	1.85
220 	7.69e-04 	3.67e-05 	1.34e-04 	7.14e-01 	2.84e-01 	2.31
230 	7.27e-04 	3.14e-05 	1.19e-04 	7.08e-01 	2.89e-01 	2.82
240 	6.97e-04 	2.72e-05 	1.07e-04 	7.04e-01 	2.94e-01 	3.40
250 	6.75e-04 	2.37e-05 	9.54e-05 	7.01e-01 	2.97e-01 	4.04
260 	6.59e-04 	2.08e-05 	8.57e-05 	6.99e-01 	2.99e-01 	4.76
270 	6.48e-04 	1.84e-05 	7.72e-05 	6.97e-01 	3.02e-01 	5.55
280 	6.42e-04 	1.63e-05 	6.98e-05 	6.95e-01 	3.04e-01 	6.43
290 	6.42e-04 	1.45e-05 	6.32e-05 	6.93e-01 	3.05e-01 	7.39
300 	6.46e-04 	1.30e-05 	5.75e-05 	6.92e-01 	3.07e-01 	8.43
310 	6.56e-04 	1.17e-05 	5.24e-05 	6.90e-01 	3.08e-01 	9.57
320 	6.73e-04 	1.05e-05 	4.79e-05 	6.89e-01 	3.09e-01 	1.08e+01
330 	6.99e-04 	9.56e-06 	4.39e-05 	6.88e-01 	3.10e-01 	1.21e+01
340 	7.42e-04 	8.73e-06 	4.04e-05 	6.87e-01 	3.11e-01 	1.35e+01
350 	8.05e-04 	7.62e-06 	3.65e-05 	6.76e-01 	3.07e-01 	1.52e+01
360 	8.42e-04 	6.10e-06 	3.17e-05 	6.51e-01 	2.97e-01 	1.76e+01
370 	8.54e-04 	4.85e-06 	2.76e-05 	6.28e-01 	2.87e-01 	2.02e+01
380 	8.51e-04 	3.86e-06 	2.42e-05 	6.09e-01 	2.79e-01 	2.31e+01
390 	8.40e-04 	3.09e-06 	2.14e-05 	5.94e-01 	2.73e-01 	2.61e+01
400 	8.22e-04 	2.47e-06 	1.90e-05 	5.82e-01 	2.69e-01 	2.92e+01
410 	8.02e-04 	1.98e-06 	1.70e-05 	5.72e-01 	2.65e-01 	3.25e+01
420 	7.80e-04 	1.60e-06 	1.53e-05 	5.64e-01 	2.63e-01 	3.59e+01
430 	7.56e-04 	1.28e-06 	1.38e-05 	5.59e-01 	2.61e-01 	3.94e+01
440 	7.33e-04 	1.03e-06 	1.26e-05 	5.54e-01 	2.60e-01 	4.31e+01
450 	7.09e-04 	8.27e-07 	1.15e-05 	5.51e-01 	2.59e-01 	4.69e+01
460 	6.85e-04 	6.62e-07 	1.05e-05 	5.49e-01 	2.59e-01 	5.08e+01
470 	6.62e-04 	5.29e-07 	9.64e-06 	5.47e-01 	2.59e-01 	5.49e+01
480 	6.39e-04 	4.21e-07 	8.87e-06 	5.46e-01 	2.59e-01 	5.91e+01
490 	6.17e-04 	3.34e-07 	8.19e-06 	5.46e-01 	2.60e-01 	6.35e+01
500 	5.96e-04 	2.64e-07 	7.58e-06 	5.46e-01 	2.61e-01 	6.80e+01
510 	5.75e-04 	2.09e-07 	7.03e-06 	5.46e-01 	2.61e-01 	7.27e+01
520 	5.55e-04 	1.65e-07 	6.53e-06 	5.47e-01 	2.62e-01 	7.76e+01
530 	5.36e-04 	1.30e-07 	6.08e-06 	5.48e-01 	2.63e-01 	8.26e+01
540 	5.17e-04 	1.04e-07 	5.67e-06 	5.49e-01 	2.65e-01 	8.77e+01
550 	4.99e-04 	8.52e-08 	5.30e-06 	5.50e-01 	2.66e-01 	9.31e+01
560 	4.82e-04 	7.16e-08 	4.95e-06 	5.51e-01 	2.67e-01 	9.87e+01
570 	4.65e-04 	6.28e-08 	4.64e-06 	5.53e-01 	2.68e-01 	1.04e+02
580 	4.49e-04 	5.80e-08 	4.35e-06 	5.55e-01 	2.70e-01 	1.10e+02
590 	4.34e-04 	5.64e-08 	4.08e-06 	5.56e-01 	2.71e-01 	1.16e+02
600 	4.19e-04 	5.77e-08 	3.84e-06 	5.58e-01 	2.72e-01 	1.23e+02
610 	4.04e-04 	6.12e-08 	3.61e-06 	5.60e-01 	2.73e-01 	1.29e+02
620 	3.90e-04 	6.66e-08 	3.40e-06 	5.62e-01 	2.75e-01 	1.36e+02
630 	3.77e-04 	7.36e-08 	3.21e-06 	5.64e-01 	2.76e-01 	1.43e+02
640 	3.65e-04 	8.19e-08 	3.03e-06 	5.66e-01 	2.77e-01 	1.50e+02
650 	3.52e-04 	9.12e-08 	2.86e-06 	5.67e-01 	2.79e-01 	1.58e+02
660 	3.40e-04 	1.01e-07 	2.70e-06 	5.69e-01 	2.80e-01 	1.66e+02
670 	3.29e-04 	1.12e-07 	2.56e-06 	5.71e-01 	2.81e-01 	1.74e+02
680 	3.18e-04 	1.23e-07 	2.42e-06 	5.73e-01 	2.82e-01 	1.82e+02
690 	3.07e-04 	1.35e-07 	2.29e-06 	5.75e-01 	2.83e-01 	1.90e+02
700 	2.97e-04 	1.47e-07 	2.18e-06 	5.77e-01 	2.85e-01 	1.99e+02
710 	2.87e-04 	1.59e-07 	2.06e-06 	5.79e-01 	2.86e-01 	2.08e+02
720 	2.78e-04 	1.71e-07 	1.96e-06 	5.81e-01 	2.87e-01 	2.18e+02
730 	2.69e-04 	1.83e-07 	1.86e-06 	5.82e-01 	2.88e-01 	2.27e+02
740 	2.60e-04 	1.95e-07 	1.77e-06 	5.84e-01 	2.89e-01 	2.37e+02
750 	2.51e-04 	2.07e-07 	1.69e-06 	5.86e-01 	2.90e-01 	2.48e+02
760 	2.43e-04 	2.19e-07 	1.61e-06 	5.88e-01 	2.91e-01 	2.58e+02
770 	2.36e-04 	2.30e-07 	1.53e-06 	5.89e-01 	2.92e-01 	2.69e+02
780 	2.28e-04 	2.41e-07 	1.46e-06 	5.91e-01 	2.93e-01 	2.81e+02
790 	2.21e-04 	2.53e-07 	1.40e-06 	5.93e-01 	2.94e-01 	2.92e+02
800 	2.14e-04 	2.63e-07 	1.33e-06 	5.94e-01 	2.95e-01 	3.04e+02
810 	2.07e-04 	2.74e-07 	1.27e-06 	5.96e-01 	2.96e-01 	3.17e+02
820 	2.00e-04 	2.84e-07 	1.22e-06 	5.97e-01 	2.97e-01 	3.30e+02
830 	1.94e-04 	2.94e-07 	1.16e-06 	5.99e-01 	2.98e-01 	3.43e+02
840 	1.88e-04 	3.04e-07 	1.12e-06 	6.01e-01 	2.99e-01 	3.57e+02
850 	1.82e-04 	3.13e-07 	1.07e-06 	6.02e-01 	3.00e-01 	3.71e+02
860 	1.76e-04 	3.22e-07 	1.02e-06 	6.03e-01 	3.01e-01 	3.86e+02
870 	1.71e-04 	3.30e-07 	9.83e-07 	6.05e-01 	3.02e-01 	4.01e+02
880 	1.65e-04 	3.39e-07 	9.44e-07 	6.06e-01 	3.03e-01 	4.16e+02
890 	1.60e-04 	3.47e-07 	9.07e-07 	6.08e-01 	3.03e-01 	4.32e+02
900 	1.55e-04 	3.54e-07 	8.72e-07 	6.09e-01 	3.04e-01 	4.49e+02
910 	1.50e-04 	3.61e-07 	8.38e-07 	6.10e-01 	3.05e-01 	4.66e+02
920 	1.46e-04 	3.67e-07 	8.07e-07 	6.12e-01 	3.06e-01 	4.84e+02
930 	1.41e-04 	3.75e-07 	7.77e-07 	6.13e-01 	3.06e-01 	5.02e+02
940 	1.37e-04 	3.81e-07 	7.49e-07 	6.14e-01 	3.07e-01 	5.21e+02
950 	1.33e-04 	3.87e-07 	7.22e-07 	6.16e-01 	3.08e-01 	5.40e+02
960 	1.29e-04 	3.93e-07 	6.97e-07 	6.17e-01 	3.08e-01 	5.60e+02
970 	1.25e-04 	3.98e-07 	6.73e-07 	6.18e-01 	3.09e-01 	5.81e+02
980 	1.21e-04 	4.03e-07 	6.50e-07 	6.19e-01 	3.10e-01 	6.02e+02
990 	1.17e-04 	4.07e-07 	6.29e-07 	6.20e-01 	3.10e-01 	6.24e+02
1000 	1.14e-04 	4.12e-07 	6.08e-07 	6.21e-01 	3.11e-01 	6.47e+02 
